# Events within the electron-recoil band (central 80 % band) of TUM40
# Energy [keV]
 42.3314
 13.0183
 99.953
 10.817
 65.3638
 11.2376
 26.5067
 30.8415
 11.0432
 10.7423
 67.5469
 56.8653
 86.6146
 0.83263
 44.141
 90.0691
 20.2681
 84.6741
 25.0421
 4.56741
 0.833755
 0.730087
 57.288
 29.042
 3.55994
 58.5044
 78.157
 56.6616
 46.9653
 64.3972
 17.9035
 38.7588
 65.4926
 10.9941
 39.1081
 88.4944
 0.628466
 80.2163
 97.9376
 15.5265
 2.60969
 11.3035
 15.3176
 0.668942
 31.0899
 80.738
 66.8743
 65.2829
 21.3675
 2.45949
 8.919
 11.3733
 65.4786
 11.4901
 9.37507
 9.0279
 65.0601
 11.2599
 94.1358
 86.1508
 40.7168
 15.9888
 68.4496
 63.2805
 0.637246
 0.771089
 32.3643
 65.2492
 58.6573
 77.6716
 92.3165
 4.70594
 74.5142
 77.2395
 65.2242
 20.0887
 69.3026
 11.1398
 64.7601
 58.7527
 26.6403
 85.4901
 46.4219
 11.1276
 9.14658
 15.8235
 76.8189
 7.35028
 78.6346
 0.737978
 2.17313
 26.5434
 5.17386
 65.3052
 65.6734
 36.7879
 1.42635
 11.1017
 52.3062
 77.373
 25.9984
 0.636353
 65.3615
 0.86963
 53.2442
 38.483
 15.9767
 65.4441
 0.621802
 2.27168
 11.3017
 18.1449
 71.1177
 25.1427
 25.1831
 15.7705
 65.5428
 11.1834
 3.06109
 10.0986
 11.3019
 34.3799
 40.0776
 90.0337
 26.2186
 14.1429
 92.5108
 27.538
 65.4974
 33.2487
 9.89688
 65.4841
 30.9858
 74.7053
 57.8424
 62.8536
 83.2258
 65.7405
 78.7117
 11.3026
 2.50183
 19.677
 85.8761
 17.9859
 11.4029
 22.3963
 29.4353
 64.2915
 3.26758
 61.3876
 7.91382
 52.8452
 46.5151
 11.3093
 46.6439
 64.8905
 93.2942
 64.7075
 99.0333
 15.9213
 8.08253
 46.3179
 11.8588
 16.2871
 18.2212
 8.03138
 50.7817
 70.5935
 43.1035
 46.6578
 2.58049
 33.4332
 65.2677
 65.5226
 27.3726
 11.3048
 98.4704
 65.2573
 65.8862
 37.8492
 2.51943
 45.9715
 77.4225
 0.728723
 44.4006
 65.332
 2.36812
 46.7132
 73.7868
 2.92382
 50.8578
 31.9451
 0.630802
 34.347
 65.7483
 18.2418
 97.231
 73.865
 53.4012
 57.9689
 5.98432
 61.714
 73.663
 16.5256
 93.23
 42.7657
 21.4024
 19.4209
 53.7768
 39.2717
 8.96308
 51.41
 45.9812
 67.7118
 11.3495
 0.625962
 77.0273
 94.5171
 40.0848
 98.6363
 98.3031
 25.529
 11.372
 63.7028
 34.8182
 71.4556
 65.2984
 74.4232
 42.0124
 65.2252
 46.4725
 25.9991
 11.5294
 3.69963
 76.7341
 49.13
 65.5644
 31.906
 65.0636
 51.7439
 76.4956
 11.4444
 57.3106
 67.2208
 13.0815
 59.7931
 0.69742
 5.14806
 99.4464
 2.26587
 44.2506
 68.0209
 21.5947
 0.633471
 71.8741
 99.581
 46.8509
 5.8294
 93.2766
 15.7483
 65.7047
 66.7411
 74.741
 18.0536
 78.0389
 39.5624
 90.948
 7.72949
 65.1374
 11.1924
 11.1704
 76.3808
 18.0953
 1.356
 46.6879
 31.9769
 65.0195
 78.7226
 2.03367
 0.605326
 66.0522
 10.8594
 93.4713
 63.2886
 32.6788
 59.3118
 65.4688
 7.87027
 46.2918
 41.8068
 64.8083
 76.9922
 46.0848
 92.0877
 16.0409
 13.4253
 33.7451
 18.8961
 46.5594
 20.5167
 2.63797
 9.37286
 10.7875
 8.82647
 1.84431
 94.261
 8.21836
 46.8995
 38.4627
 92.8143
 52.7396
 27.178
 63.9284
 15.7347
 4.1538
 37.9519
 17.6136
 11.4741
 78.3734
 56.6852
 79.11
 8.24746
 65.5622
 8.38115
 11.3591
 36.6774
 18.6067
 8.01203
 93.0194
 69.2408
 65.137
 80.1427
 11.2519
 46.302
 43.2281
 4.99283
 11.4056
 65.1716
 0.639103
 65.1701
 59.8988
 46.5089
 0.676005
 11.4184
 73.4398
 65.1675
 73.3632
 51.9305
 63.1206
 46.1884
 4.02835
 8.82611
 60.9192
 96.7318
 65.308
 32.3468
 7.52812
 41.8264
 53.8294
 11.3666
 73.6876
 45.7652
 65.4196
 80.7526
 58.2091
 2.0729
 19.8751
 11.3913
 58.8026
 70.0501
 3.55699
 65.5165
 15.5182
 25.6643
 11.3685
 65.1505
 9.95554
 40.4539
 65.392
 11.2649
 42.3348
 21.1342
 6.9331
 32.4009
 64.2983
 11.2851
 64.8853
 94.8949
 52.8744
 0.800495
 64.7761
 46.2589
 34.2144
 91.8503
 47.1284
 46.7705
 30.5597
 77.2167
 21.5848
 65.3827
 17.9337
 11.2973
 6.82672
 11.2918
 38.8863
 65.6678
 47.0775
 87.6377
 38.0992
 72.8146
 99.0237
 65.1793
 22.0665
 8.17787
 6.01562
 2.51273
 52.723
 2.64137
 10.9403
 14.4697
 14.8442
 97.681
 19.9878
 11.5214
 95.9602
 96.7244
 10.9835
 44.9018
 80.2945
 47.2229
 2.52006
 73.5581
 46.5682
 41.9677
 66.4399
 66.9472
 57.6384
 11.3232
 64.9032
 64.7212
 14.5932
 10.7426
 92.1573
 74.7854
 64.6849
 64.648
 53.7297
 46.417
 93.9888
 60.139
 53.132
 25.3243
 0.853067
 85.3873
 73.6772
 71.3734
 51.9215
 45.5549
 18.6222
 45.174
 11.1967
 65.5453
 92.5727
 12.4145
 2.55265
 16.4862
 16.8816
 11.3643
 2.67822
 35.8277
 0.770157
 92.9776
 9.26878
 0.780601
 46.4848
 84.4055
 65.6237
 73.9283
 0.738661
 11.0435
 10.5917
 77.8927
 41.9215
 10.9584
 20.3248
 2.54809
 44.8071
 6.41479
 33.5031
 12.8417
 2.54359
 65.3383
 91.3615
 17.5993
 94.7945
 17.1302
 11.2497
 84.2501
 0.749261
 92.166
 65.176
 0.712341
 97.1836
 8.20358
 13.0128
 65.3619
 10.8141
 71.4524
 22.3236
 65.811
 73.1693
 16.346
 0.760885
 41.7331
 17.9186
 82.3087
 1.94846
 41.4847
 11.4708
 15.4611
 65.701
 73.5773
 49.3176
 6.37677
 34.3891
 2.78718
 93.9541
 84.9007
 2.5562
 66.263
 80.7337
 65.8845
 11.3937
 46.9689
 14.5146
 19.1686
 62.1312
 65.5767
 78.9106
 65.8641
 53.5952
 65.5543
 4.96003
 46.8066
 73.9458
 57.5356
 77.5925
 46.3667
 25.2889
 0.803738
 81.3113
 65.8364
 92.515
 4.73922
 67.259
 2.54742
 78.0961
 20.5006
 40.6347
 37.1037
 90.6737
 43.9308
 57.8266
 15.7392
 1.96243
 40.6438
 89.1013
 38.095
 26.9948
 46.9741
 12.7596
 49.1357
 74.1194
 53.5661
 90.4052
 8.49684
 19.3716
 11.4304
 19.6046
 8.85836
 15.7908
 11.534
 11.4055
 94.3084
 26.2449
 65.2835
 43.7463
 75.0205
 65.8872
 33.5741
 74.0818
 10.6883
 87.0135
 54.0679
 90.1548
 75.652
 0.837268
 2.67655
 99.7527
 65.9246
 11.8898
 65.4133
 75.4789
 22.0277
 40.1202
 46.3983
 46.4008
 63.2553
 80.6751
 86.7422
 10.7229
 77.1484
 4.56222
 12.4287
 56.5554
 12.7033
 11.22
 29.3067
 69.5201
 18.8985
 66.0226
 9.21816
 84.3068
 33.8046
 74.1652
 76.0276
 11.506
 8.33306
 95.4001
 73.9095
 47.0143
 92.1774
 88.7872
 0.748274
 7.85006
 63.3959
 90.581
 94.2988
 62.9839
 54.7476
 58.3266
 10.7801
 11.5456
 10.8485
 66.4335
 5.70852
 66.4296
 11.4973
 2.4912
 93.3143
 87.451
 65.6757
 12.1234
 21.3743
 16.1279
 65.7828
 57.4147
 65.6771
 11.3926
 13.098
 73.9147
 65.9352
 65.7896
 26.7723
 15.8254
 11.3379
 14.3925
 24.6097
 11.4019
 25.0864
 78.0534
 65.3932
 65.8475
 37.7832
 18.9562
 65.8429
 71.3073
 18.1614
 65.7957
 24.6254
 26.7924
 40.0618
 37.7669
 2.59856
 98.806
 9.55342
 57.3598
 11.2451
 46.6799
 11.3349
 52.2542
 74.9744
 93.4448
 92.3804
 65.5025
 26.1623
 23.2052
 65.3611
 51.506
 92.5819
 39.7624
 11.2277
 76.6891
 7.39576
 20.7194
 65.3
 77.5742
 44.4397
 73.1245
 56.174
 27.0965
 11.3692
 76.4408
 92.3875
 1.37033
 96.7884
 65.3341
 41.4775
 95.9801
 25.4318
 38.5272
 41.3572
 11.2258
 29.3996
 73.6442
 80.9779
 73.2165
 13.1177
 65.0932
 65.1634
 6.70625
 99.676
 28.1024
 74.0492
 22.4011
 58.7446
 92.006
 34.535
 64.9958
 12.8712
 65.0697
 65.1041
 11.2182
 46.2806
 65.0623
 52.9081
 64.9742
 65.0506
 48.1343
 14.0376
 83.4569
 0.67526
 92.0638
 65.9919
 64.8779
 48.6941
 0.878807
 46.8587
 52.4317
 11.2782
 32.2394
 81.5025
 36.3813
 65.56
 65.4431
 92.9786
 58.6891
 65.3906
 65.7608
 94.7551
 3.17879
 87.776
 11.3814
 25.4993
 72.5909
 41.8177
 2.6807
 65.5575
 87.0927
 46.6687
 25.5835
 63.7013
 13.1358
 33.6876
 61.3078
 10.7828
 70.3457
 11.3065
 93.0862
 64.4806
 11.698
 64.9644
 84.3216
 9.41586
 93.6226
 92.1341
 65.4305
 42.6209
 41.9103
 65.3499
 31.4791
 65.4852
 97.4579
 84.6817
 73.6866
 9.99459
 64.1702
 67.6555
 8.94584
 48.5591
 65.1164
 16.5509
 26.8207
 3.75675
 46.3353
 92.5653
 2.4262
 33.8345
 2.22259
 8.3122
 1.80879
 93.5542
 65.4563
 11.2125
 2.68035
 65.1127
 62.5806
 57.9687
 15.142
 20.3954
 11.255
 63.3751
 51.5184
 8.13386
 0.954265
 2.79879
 18.2006
 11.3231
 65.9066
 33.046
 30.7251
 86.5959
 4.61973
 13.0156
 11.3081
 42.4143
 1.05974
 65.2988
 80.5552
 6.55045
 25.0808
 96.4909
 16.5353
 12.7415
 40.5176
 10.8414
 34.2877
 29.4458
 85.8403
 89.6277
 15.3809
 65.3281
 82.3831
 73.2641
 7.65385
 76.8909
 65.5913
 83.9812
 64.2975
 32.282
 19.0863
 1.54933
 80.0751
 77.6335
 54.3227
 11.4756
 92.764
 55.3631
 74.0491
 29.6917
 32.8277
 16.8604
 65.1768
 65.147
 37.061
 2.50659
 53.6242
 65.3552
 10.7179
 84.268
 42.8966
 45.9434
 11.3293
 91.5143
 65.4572
 65.4133
 33.6898
 46.477
 46.3314
 73.3416
 37.0966
 8.14914
 11.4113
 66.7008
 68.0077
 99.7626
 23.6297
 93.8709
 11.6339
 2.50245
 66.5817
 25.3032
 40.9556
 99.7181
 13.8471
 25.5814
 0.903605
 85.231
 74.898
 0.68701
 16.5152
 11.7578
 89.0638
 16.552
 8.21149
 66.851
 66.5039
 97.3864
 46.5222
 48.1392
 93.9907
 47.2091
 63.1207
 8.47032
 27.8023
 11.0647
 6.07528
 20.3455
 66.8708
 64.3886
 74.8434
 66.5725
 1.39643
 75.2767
 50.2458
 69.8182
 50.4915
 10.9608
 11.5726
 65.7375
 10.1617
 14.1006
 69.9436
 13.2472
 9.38761
 77.9272
 66.172
 53.7396
 17.0886
 40.0611
 46.6224
 84.1541
 49.9797
 63.1192
 10.7539
 70.153
 42.5233
 0.97912
 7.98763
 65.3008
 2.61337
 8.98341
 45.7546
 81.7224
 26.5187
 60.5834
 15.114
 48.3972
 70.6354
 68.0975
 49.3414
 74.2792
 58.6747
 15.7979
 1.63498
 18.5977
 23.1715
 78.0594
 11.4857
 33.14
 46.9965
 93.372
 69.2989
 74.0299
 97.3008
 98.5676
 11.5549
 18.1361
 62.1993
 95.1351
 1.85378
 65.7321
 46.7915
 11.3961
 50.7879
 65.8241
 27.3069
 18.1841
 7.45672
 65.7008
 81.2689
 40.219
 92.5308
 11.1699
 33.8409
 65.3175
 55.1224
 89.6642
 0.727586
 1.0013
 30.2064
 96.4573
 3.4915
 35.0651
 4.78347
 93.5162
 65.2291
 11.0341
 74.8042
 8.48108
 19.5212
 66.1455
 12.8066
 75.2372
 74.0953
 92.1739
 54.5586
 57.7204
 11.5784
 15.4997
 65.5501
 13.6124
 80.2672
 65.7288
 85.2974
 34.3194
 4.59089
 1.62113
 11.4257
 47.5279
 28.5234
 2.54945
 22.2467
 74.1807
 6.0797
 33.8979
 86.0117
 29.8658
 92.5334
 80.811
 33.1002
 9.65023
 23.1887
 73.7791
 46.8409
 66.2734
 5.99537
 15.964
 15.2671
 98.8928
 14.8859
 11.2888
 74.0862
 25.1952
 11.8593
 61.3808
 41.5514
 35.7341
 60.6417
 11.3402
 17.9359
 16.6332
 64.7071
 6.14615
 11.2717
 65.5609
 35.8866
 65.0097
 22.8245
 20.1461
 23.2636
 25.4069
 37.5743
 21.227
 65.2472
 10.8719
 99.8778
 13.526
 47.7228
 99.0163
 97.7297
 2.94905
 85.2993
 71.4265
 93.8285
 64.7775
 5.4001
 65.0698
 11.2601
 32.6346
 8.02082
 71.8624
 65.1301
 64.8584
 11.1751
 38.749
 93.3861
 63.19
 2.81998
 92.288
 89.5418
 11.3787
 11.1749
 33.408
 98.0369
 2.61395
 26.025
 12.5275
 45.9888
 91.7203
 64.6308
 36.6796
 73.5977
 65.2865
 64.5432
 66.9236
 0.663823
 98.9074
 86.1279
 29.1008
 0.724342
 18.9765
 2.66472
 88.7434
 60.2004
 17.3296
 90.2295
 45.1981
 11.4349
 28.0826
 7.92719
 11.2124
 64.9372
 73.2954
 79.193
 51.7992
 65.4136
 95.2184
 47.3385
 11.5128
 15.4733
 11.1597
 96.2858
 2.33825
 23.1532
 74.1614
 25.3916
 81.3857
 12.0517
 44.5513
 13.6078
 89.8787
 18.4209
 15.014
 73.6241
 12.6263
 74.1259
 14.0873
 73.313
 81.4723
 65.3482
 74.9867
 70.3051
 11.4578
 22.7166
 3.96797
 76.7718
 31.2815
 79.3832
 77.0333
 77.9923
 91.8573
 73.7965
 98.2668
 4.69329
 92.963
 8.2972
 64.8363
 47.2219
 73.1122
 91.8296
 1.94778
 48.2238
 8.1762
 71.1475
 83.8414
 2.48458
 29.7393
 63.6432
 34.1429
 51.6989
 40.958
 6.09516
 62.8527
 88.8907
 46.0091
 44.0508
 17.7552
 30.7745
 78.3858
 21.0965
 2.43045
 0.640837
 32.8573
 13.9406
 85.9084
 73.2543
 11.3016
 89.0289
 65.1294
 46.5311
 52.6474
 96.1419
 42.2741
 65.7954
 11.306
 73.5004
 19.1249
 64.9756
 9.6161
 25.894
 45.5924
 64.762
 65.2269
 63.1694
 17.8671
 11.259
 25.7743
 8.17487
 27.314
 15.1614
 64.7991
 14.8236
 46.7292
 62.4811
 85.0445
 65.4132
 73.7437
 81.7339
 64.9717
 21.7947
 64.987
 11.077
 74.6257
 61.0096
 73.1259
 11.28
 73.7479
 5.92097
 77.7811
 69.1429
 77.2752
 67.3666
 62.841
 10.8807
 60.7424
 22.8015
 58.7702
 0.797148
 64.5054
 2.61913
 92.4228
 11.3142
 64.2475
 18.7759
 11.3156
 22.8264
 7.90014
 46.4066
 63.1402
 0.888834
 1.37268
 33.3119
 7.69403
 23.4427
 6.01188
 11.4316
 99.2331
 95.1314
 34.2072
 1.02904
 61.3331
 81.8184
 65.0591
 11.2364
 17.8998
 64.4359
 0.904692
 8.05027
 74.0211
 65.1067
 26.1143
 95.2749
 65.1613
 2.78709
 68.6022
 48.3973
 31.0157
 13.2132
 40.4429
 10.4513
 75.0485
 66.0213
 65.3984
 11.8819
 12.7247
 47.9365
 9.06881
 0.879786
 47.5579
 1.23894
 11.5503
 92.6636
 54.5223
 38.875
 67.4041
 29.0871
 11.2219
 2.6087
 0.638761
 64.9557
 63.218
 51.7043
 15.9256
 2.4347
 26.1931
 24.2229
 29.4807
 50.8473
 2.3464
 65.3248
 64.9862
 14.2377
 2.59094
 11.3383
 44.6768
 1.14332
 64.5793
 73.5942
 79.9056
 97.1286
 62.4853
 64.9283
 11.1913
 65.1586
 17.0869
 31.205
 30.8962
 71.2387
 74.6145
 23.0737
 2.62451
 95.1319
 45.6577
 3.77462
 23.3637
 65.1505
 65.3244
 85.0553
 54.9703
 18.0665
 10.8498
 46.5502
 53.3705
 66.6748
 56.0427
 28.8186
 57.3085
 78.7719
 8.19477
 11.1417
 27.6529
 91.0117
 42.1591
 11.1828
 11.7647
 46.4472
 22.1709
 13.2565
 11.3846
 47.6703
 29.6367
 12.4866
 65.5166
 93.5781
 2.60923
 93.4107
 11.2368
 39.9789
 2.58076
 46.5553
 65.4036
 21.9563
 73.0283
 16.8068
 92.856
 94.912
 15.4804
 64.6933
 17.9083
 46.352
 11.2838
 72.9541
 64.8223
 10.041
 93.924
 86.9439
 3.15551
 48.9477
 27.0675
 40.8656
 11.421
 3.77259
 86.6479
 24.703
 94.1514
 52.5736
 43.8025
 2.95251
 70.3022
 74.385
 40.4748
 59.6691
 12.6107
 39.0614
 90.9748
 86.3971
 59.7205
 74.1611
 9.79583
 13.2186
 2.53942
 64.697
 2.6105
 10.7324
 4.87416
 64.523
 45.8385
 93.3705
 7.8956
 79.9148
 46.9501
 58.5825
 23.5284
 46.2542
 78.8984
 92.3698
 11.2951
 73.0439
 37.1167
 64.7632
 65.1759
 11.4869
 11.3384
 79.4401
 0.624579
 64.8858
 56.7118
 0.810948
 7.79136
 79.9121
 59.1147
 54.434
 65.3776
 65.066
 43.5768
 29.6485
 56.6468
 17.7134
 12.4126
 4.20131
 46.1361
 58.8989
 4.31695
 11.2412
 99.2973
 33.2926
 6.53165
 20.6164
 4.68391
 55.8778
 72.9439
 91.837
 64.872
 94.2165
 64.69
 73.8804
 55.1949
 48.5218
 6.13483
 48.6522
 6.24561
 64.8989
 33.9705
 33.702
 39.7451
 72.3035
 11.0604
 75.3527
 43.987
 11.3948
 0.636892
 64.9479
 22.3852
 99.7502
 6.30176
 64.8318
 35.939
 72.2585
 0.918715
 11.3072
 11.3571
 64.8226
 85.0544
 42.33
 9.45357
 99.338
 58.7163
 2.65795
 64.9052
 77.328
 11.3084
 36.5671
 19.6946
 64.7678
 25.4714
 64.7923
 11.1611
 65.2392
 64.8055
 46.21
 92.4608
 1.9036
 46.3527
 37.3952
 65.2429
 59.8385
 25.6091
 37.4149
 95.8987
 90.1294
 13.1593
 73.1112
 5.9749
 61.2928
 24.9379
 37.5142
 11.2498
 29.9936
 2.53886
 71.5976
 22.4367
 77.0018
 74.7968
 65.2586
 50.4705
 12.9242
 10.9725
 11.33
 17.6108
 65.0295
 31.9094
 46.2966
 27.9735
 18.3431
 21.6474
 79.0154
 21.5604
 2.65241
 10.6332
 64.9732
 52.1344
 40.9438
 38.2666
 86.024
 12.6381
 92.2461
 64.7529
 63.8696
 38.9996
 11.3132
 71.8786
 4.4521
 6.39858
 56.504
 11.2507
 2.6641
 37.5469
 12.1431
 31.4777
 28.6264
 64.6344
 65.011
 35.3147
 11.3477
 65.4216
 61.461
 19.09
 29.9337
 46.402
 10.7675
 73.4868
 1.31073
 92.91
 38.8157
 65.2852
 57.0182
 95.5797
 47.828
 11.2582
 66.1856
 11.2751
 37.6125
 11.3676
 16.6174
 85.0471
 18.0176
 1.14035
 89.2524
 93.3856
 68.5939
 62.9065
 85.2677
 31.3916
 12.0293
 22.0463
 26.299
 53.7954
 76.5922
 9.27437
 7.92159
 2.58656
 38.7872
 33.3325
 71.8663
 46.221
 29.8462
 65.0282
 21.6219
 11.2795
 92.6705
 81.6105
 0.667573
 92.5685
 64.914
 65.0556
 25.4235
 98.4034
 8.93765
 64.9713
 94.567
 65.0862
 13.3888
 24.7361
 60.074
 7.14038
 79.9961
 83.5257
 9.65203
 0.767224
 0.815961
 86.5537
 40.4405
 0.662564
 24.0644
 12.7944
 98.0947
 20.4253
 12.6017
 73.6722
 98.2385
 97.5059
 93.4849
 7.67503
 2.9163
 13.7002
 76.9819
 0.677407
 64.9528
 21.7617
 65.385
 88.5596
 65.098
 12.2644
 10.7089
 32.072
 49.2545
 64.8531
 0.60919
 63.8292
 47.1301
 91.1772
 0.744344
 27.3113
 2.51888
 92.0995
 92.36
 91.8531
 76.2673
 16.5719
 11.3601
 83.6229
 24.3475
 10.6627
 65.1593
 65.2245
 11.3051
 73.1611
 3.74528
 65.5319
 0.608817
 65.0438
 98.0105
 8.10748
 15.1932
 8.09986
 0.726595
 11.2455
 11.2836
 60.74
 61.3532
 64.8359
 37.2161
 7.24594
 64.9022
 83.9851
 65.9993
 70.8758
 56.7451
 73.2995
 2.58206
 11.2774
 73.4549
 65.2937
 11.428
 5.50688
 26.358
 28.5351
 46.1605
 64.9826
 47.2883
 74.7772
 65.2302
 11.6409
 35.2392
 72.9432
 94.2267
 92.5498
 0.735002
 11.3927
 64.7441
 12.7968
 83.2681
 14.002
 10.4323
 12.7405
 0.792115
 11.3343
 74.2619
 51.9143
 18.9697
 11.3906
 97.8565
 0.745358
 20.1441
 10.9926
 84.5269
 8.15955
 2.61537
 59.7067
 11.4008
 9.50711
 66.4715
 92.1583
 81.944
 10.8853
 65.0296
 11.4053
 19.0438
 31.2877
 2.71381
 64.4652
 33.8158
 65.1003
 65.0894
 11.1267
 4.55398
 83.8714
 67.1162
 11.5574
 2.71961
 45.8544
 75.5929
 25.0441
 92.5368
 64.6984
 46.2412
 2.67992
 46.5395
 11.0621
 99.7139
 65.2266
 16.2001
 2.87919
 43.0927
 58.7664
 0.698543
 54.5975
 66.8022
 47.6143
 65.3665
 64.742
 2.65043
 11.1077
 11.2972
 96.8752
 92.5449
 64.774
 93.2507
 11.136
 65.3355
 46.7525
 29.7094
 79.8709
 10.6924
 41.789
 64.8375
 64.9363
 11.3007
 11.4294
 95.3162
 11.1686
 16.3677
 46.1171
 65.0549
 5.56565
 11.2887
 91.7548
 0.617071
 73.2243
 0.778011
 15.2099
 46.1132
 84.3067
 46.2477
 5.97915
 44.1146
 7.19438
 42.4758
 13.1712
 4.43325
 64.7459
 75.7722
 6.8177
 8.97887
 60.3155
 98.0179
 30.4632
 2.62836
 65.0337
 49.0691
 13.1584
 63.3336
 64.9437
 82.9211
 10.9009
 91.4868
 0.657175
 43.0737
 9.49517
 95.3301
 64.7482
 73.0422
 95.3689
 64.9502
 64.8472
 21.7763
 65.2485
 52.504
 91.8533
 11.2637
 61.7411
 63.7137
 10.9125
 64.1996
 82.3136
 17.4359
 15.6052
 65.151
 72.8863
 57.4343
 7.3072
 72.0425
 8.09179
 86.838
 64.3318
 52.1724
 64.7976
 22.5185
 11.1251
 2.7129
 11.1035
 75.2516
 78.0906
 73.288
 90.9518
 11.3036
 65.1992
 31.4003
 67.7208
 97.1757
 18.1677
 11.119
 99.2125
 11.7977
 74.8021
 7.97002
 11.2132
 33.1117
 87.2009
 64.4937
 76.1155
 67.445
 17.9053
 65.0197
 32.2746
 65.0262
 34.8642
 8.18767
 11.3101
 41.5417
 81.6874
 82.3013
 55.9806
 65.1884
 44.12
 59.0722
 2.67612
 11.1196
 62.8994
 24.2497
 8.24185
 18.6863
 2.43836
 11.2573
 65.2188
 30.5952
 0.642777
 10.5966
 11.1364
 97.9785
 75.7426
 65.4018
 15.0722
 62.8759
 3.55145
 96.1336
 91.5225
 78.6267
 86.4602
 74.6288
 73.3201
 11.2819
 43.9876
 67.1472
 48.4157
 93.7109
 1.37355
 10.0773
 42.9892
 46.3686
 42.7654
 64.6856
 10.7041
 0.65018
 75.3796
 15.1177
 40.2798
 11.3116
 81.0257
 7.59981
 9.86633
 10.7395
 65.1013
 2.62238
 0.633055
 68.5389
 11.4627
 2.55511
 26.7737
 17.1135
 64.7587
 49.1842
 27.6255
 57.7503
 20.9954
 11.2266
 93.6185
 0.700115
 90.6219
 73.566
 16.6042
 12.1697
 63.2778
 14.3696
 16.4729
 0.750095
 11.2579
 12.0664
 93.8188
 63.0105
 82.7471
 65.6115
 63.1928
 73.3196
 21.5404
 40.3461
 21.8201
 0.693138
 91.2057
 30.8922
 92.0446
 86.7613
 6.88359
 64.3686
 45.9839
 10.5789
 6.52435
 7.98074
 42.7065
 11.3488
 11.1562
 0.630527
 78.0781
 43.773
 58.1936
 65.0333
 74.4607
 16.5885
 2.65143
 39.1267
 32.9914
 59.4194
 67.0997
 47.7913
 76.3908
 25.0507
 64.9274
 44.0826
 7.87519
 66.7379
 0.637756
 75.2793
 33.8076
 99.7032
 65.0901
 10.2863
 1.33596
 72.3833
 82.4309
 35.0131
 76.7426
 5.63576
 2.66738
 73.3479
 32.0027
 11.3333
 20.0895
 29.6494
 64.4731
 65.0516
 64.732
 66.8803
 46.2186
 99.9506
 40.602
 17.9916
 65.2836
 46.3458
 11.3452
 46.4642
 6.51756
 60.4365
 30.0569
 12.6792
 89.2336
 24.9217
 65.5336
 64.98
 85.4139
 10.331
 7.39967
 7.80362
 79.7403
 77.9114
 67.3785
 67.9071
 64.7776
 20.0929
 46.2673
 94.2835
 70.5766
 0.669471
 83.3914
 65.0791
 65.3755
 64.8518
 99.4391
 11.3249
 73.2597
 7.39695
 10.6711
 83.3603
 45.9819
 2.56215
 93.7306
 61.6404
 11.3012
 59.5341
 2.62957
 67.1256
 92.2562
 89.9724
 18.1935
 11.1799
 44.3413
 30.985
 75.7473
 52.2348
 11.3924
 91.9002
 11.4692
 96.0404
 7.53336
 3.64343
 0.687852
 64.8941
 71.2822
 79.2481
 5.81969
 76.0844
 69.6267
 65.1199
 95.3208
 64.5523
 7.60983
 25.3398
 46.3847
 64.9226
 2.68239
 10.6838
 64.9131
 11.2611
 30.8434
 13.6613
 80.4162
 46.5694
 76.9468
 90.5649
 87.8519
 13.8093
 46.4281
 64.4591
 94.1355
 5.04508
 38.9211
 95.9202
 31.7572
 64.931
 95.3317
 1.29552
 71.3111
 74.0033
 86.7542
 18.4095
 6.8254
 64.6557
 6.6156
 9.39085
 11.257
 73.1337
 11.2155
 67.0876
 73.377
 37.2655
 73.2463
 8.09601
 0.664691
 15.8488
 97.1178
 15.9221
 64.7959
 64.9348
 10.7125
 86.4704
 85.683
 43.4571
 64.907
 21.0354
 36.4884
 65.0031
 2.63368
 11.2094
 10.1328
 12.9688
 0.725535
 17.8491
 11.1227
 0.690628
 11.3855
 46.4232
 64.9575
 16.4326
 67.1324
 32.4634
 38.0299
 64.4698
 6.84698
 65.4098
 10.8053
 49.0322
 40.4019
 2.57523
 64.5711
 79.1654
 65.133
 64.7109
 85.178
 11.3183
 92.3936
 89.4568
 2.7443
 78.9522
 13.4791
 85.9867
 11.3412
 69.3486
 73.0964
 64.7785
 24.6525
 64.7288
 11.8406
 11.3665
 92.3888
 65.2129
 89.6054
 11.2885
 11.259
 84.103
 21.7972
 26.117
 15.6617
 73.3918
 11.3118
 31.6199
 17.0238
 13.8678
 11.299
 93.809
 12.5853
 11.2595
 65.3644
 37.0194
 9.71197
 50.9113
 15.7052
 5.74215
 65.1112
 91.7773
 54.6064
 1.57025
 67.9586
 11.208
 80.6355
 71.9549
 23.1738
 76.9876
 89.3638
 0.675667
 11.3099
 11.3009
 0.656099
 94.5266
 64.9858
 14.7698
 35.8085
 28.7198
 28.3805
 65.6593
 65.2225
 71.4516
 45.9459
 4.36521
 17.9294
 12.9458
 89.9853
 24.9089
 73.6445
 31.8516
 64.8546
 2.71796
 70.8864
 63.8383
 2.54759
 11.1967
 23.5121
 91.1124
 11.2154
 78.6097
 65.1902
 16.5114
 12.5825
 18.5719
 10.0372
 92.0433
 65.38
 64.6608
 91.0729
 21.6503
 14.3033
 52.535
 2.53015
 95.3744
 7.44764
 65.0294
 14.9352
 75.081
 12.2221
 64.9749
 55.7471
 18.0852
 50.032
 54.887
 10.7126
 3.78243
 10.5628
 76.6334
 2.61313
 22.6485
 10.0353
 11.1709
 68.383
 40.9486
 6.05129
 85.2475
 24.2113
 87.3082
 51.0617
 26.0078
 69.3639
 42.5286
 13.1532
 58.0751
 28.5522
 31.1964
 93.6418
 34.2183
 54.4325
 27.922
 11.2028
 4.5844
 15.434
 89.3671
 64.5712
 64.885
 11.2969
 11.2821
 35.6525
 11.0689
 87.1772
 79.4186
 64.8529
 52.5601
 11.2053
 28.4113
 25.6719
 4.89197
 29.7089
 28.8376
 31.3789
 10.9854
 63.9703
 11.3182
 51.7733
 66.5274
 2.46148
 70.8255
 32.3103
 94.7607
 21.9002
 82.8525
 41.0802
 28.6035
 11.4027
 38.0301
 49.2544
 65.2747
 20.946
 36.9695
 42.5565
 99.1719
 27.4616
 92.2358
 41.3703
 2.59629
 76.5908
 64.452
 76.5461
 66.84
 65.1012
 31.5696
 73.1399
 5.27921
 7.36652
 25.8475
 65.2249
 11.1698
 26.084
 27.5718
 8.05991
 85.9671
 46.2029
 90.58
 39.5253
 74.4272
 75.8204
 20.9569
 37.9232
 41.6538
 0.731711
 88.5499
 65.1636
 23.2619
 0.621214
 84.3401
 69.2011
 96.0465
 46.1057
 42.5193
 24.1132
 46.277
 29.561
 25.7226
 2.62804
 11.131
 2.24363
 44.7746
 17.6309
 38.4608
 46.1259
 78.0899
 98.7261
 6.65321
 82.0267
 46.3288
 6.55731
 35.7421
 46.2864
 78.5758
 64.843
 64.2534
 77.815
 11.3602
 32.7121
 7.89887
 94.6801
 30.6044
 11.1572
 24.5846
 23.7686
 26.2937
 65.2612
 8.82024
 75.3865
 67.1655
 0.609021
 6.91027
 25.6532
 90.8419
 5.23859
 7.98243
 11.2211
 7.90781
 92.7629
 30.0555
 18.8187
 15.6232
 46.3918
 10.8324
 2.52053
 84.5043
 46.3139
 96.51
 11.1866
 7.87464
 64.6184
 0.772741
 32.2479
 80.4637
 59.507
 76.5161
 65.0273
 80.0325
 30.8548
 49.332
 68.6408
 17.4151
 21.6078
 64.9509
 94.7655
 11.272
 64.0009
 61.8364
 95.7389
 93.053
 11.3373
 45.5838
 17.9964
 11.0513
 64.8325
 12.9513
 32.2966
 65.0443
 92.5542
 65.1652
 83.1597
 73.226
 5.66208
 75.7191
 64.9985
 19.5646
 25.7998
 61.937
 87.1054
 11.3475
 81.4065
 11.2336
 16.2988
 65.0167
 73.1895
 11.1688
 73.3381
 92.681
 59.0009
 32.1922
 12.4124
 11.3237
 64.9093
 65.377
 13.8077
 78.7897
 11.3858
 55.2811
 64.8605
 47.4453
 71.7163
 66.6275
 29.7644
 72.0833
 62.6395
 0.714611
 2.59468
 21.7266
 69.4237
 65.3261
 65.2568
 0.662651
 12.0637
 75.058
 65.0103
 24.3318
 81.35
 73.7965
 11.358
 30.646
 57.5097
 35.4897
 0.745557
 19.4695
 9.50472
 1.64187
 80.2584
 1.02987
 38.6193
 9.51406
 9.63106
 65.1735
 46.2317
 51.0856
 13.3037
 11.2293
 97.5583
 2.28754
 88.7886
 11.2138
 11.2088
 6.10767
 0.842898
 11.3293
 65.2687
 22.843
 12.9893
 95.3309
 8.94518
 76.1686
 45.9874
 5.07738
 73.4687
 81.1583
 7.98955
 64.8815
 53.9958
 46.2747
 0.750396
 60.1494
 12.9666
 2.56283
 15.2515
 40.7514
 76.1547
 27.3806
 95.1683
 15.6323
 5.67379
 60.721
 5.0484
 9.55207
 6.07679
 98.7204
 76.8126
 73.6332
 81.7852
 2.46607
 13.0925
 20.0222
 0.744405
 65.0916
 29.217
 73.7131
 84.469
 82.0049
 64.7457
 25.0621
 75.9957
 11.3294
 21.9318
 11.2916
 41.4086
 94.3292
 11.2964
 11.2404
 11.3197
 11.0987
 27.2789
 72.498
 65.0921
 65.1782
 43.4854
 64.9198
 10.8065
 28.5792
 64.6408
 64.8109
 46.0784
 7.87072
 7.89178
 58.3819
 0.66605
 53.7495
 12.1337
 35.2912
 86.9461
 46.3604
 44.362
 65.0522
 16.8986
 18.2626
 65.0057
 2.64549
 29.6165
 11.1893
 11.3305
 45.9103
 76.9012
 15.7715
 96.5853
 54.3801
 93.9502
 49.3224
 80.5588
 11.3561
 5.73307
 53.0078
 55.5235
 65.0809
 93.1102
 15.5636
 65.1806
 11.3885
 94.4129
 61.3086
 37.467
 63.1144
 37.3419
 17.9781
 76.4795
 55.744
 65.0422
 10.6675
 46.1701
 43.9313
 5.22314
 64.8893
 64.9834
 31.422
 2.54303
 33.3046
 11.2695
 10.8503
 86.4335
 38.6832
 8.0938
 4.39569
 90.661
 8.11629
 93.1534
 8.05057
 64.9863
 25.1818
 13.0586
 11.2651
 2.45038
 0.685345
 65.0559
 88.4212
 64.8542
 35.4089
 11.2563
 12.6721
 72.2724
 10.6725
 36.8692
 10.7906
 39.1925
 73.666
 26.2652
 73.6012
 62.5051
 2.64268
 44.7289
 82.5799
 21.0476
 64.711
 64.9366
 1.22332
 70.9246
 11.6467
 57.0794
 64.7762
 73.4225
 90.4822
 73.2711
 64.9036
 93.2956
 28.7202
 86.4707
 64.9472
 4.94076
 24.9624
 86.7562
 9.47635
 8.09347
 44.2611
 76.6781
 26.8574
 0.722829
 6.16916
 65.0753
 46.4207
 89.7353
 46.193
 14.0109
 3.58085
 13.1791
 41.4414
 65.0578
 12.9794
 13.2664
 53.7783
 77.8162
 96.6702
 0.627189
 11.2086
 11.1447
 64.8443
 28.1816
 0.841611
 13.5658
 11.0617
 86.4237
 50.2045
 11.2943
 2.51131
 96.0889
 11.0792
 11.2038
 12.6598
 0.723536
 89.9168
 5.04578
 49.2436
 98.738
 11.2489
 65.1743
 73.7071
 35.4173
 29.179
 80.3805
 2.12677
 65.3332
 39.9673
 1.59287
 46.4308
 12.9368
 64.6187
 11.3313
 19.2687
 12.5596
 39.1737
 96.8599
 80.0666
 14.9339
 64.7701
 19.6065
 97.0222
 10.8956
 9.59131
 48.5187
 6.0251
 11.056
 11.3107
 63.3507
 46.5399
 40.5072
 93.4862
 2.53432
 95.4081
 91.861
 11.6457
 64.4194
 11.2356
 5.08103
 64.8086
 51.1067
 19.7305
 62.4822
 42.906
 12.3858
 5.75636
 73.0714
 73.022
 45.2174
 94.4268
 82.896
 78.9944
 33.4631
 73.6578
 6.28036
 11.4135
 11.2698
 66.3693
 7.95251
 11.0946
 81.0211
 47.2729
 18.0594
 57.1892
 91.1566
 21.0527
 39.8839
 65.0974
 11.2268
 3.88583
 1.9808
 29.09
 33.7766
 60.0623
 20.1977
 64.6345
 13.0891
 84.9498
 26.6983
 65.2209
 73.2435
 11.3128
 2.71245
 53.3084
 41.4352
 65.5348
 51.9887
 25.0205
 65.2945
 11.1572
 12.931
 11.8519
 46.3019
 28.9014
 29.8936
 64.7259
 93.1195
 61.7416
 35.1925
 13.615
 66.5753
 62.9653
 13.3815
 99.9847
 10.8966
 18.1984
 72.4873
 12.9459
 11.1511
 78.4958
 44.2067
 17.0074
 0.71452
 43.4037
 75.7966
 46.2628
 0.768582
 46.0017
 73.5615
 54.8623
 93.4351
 11.0785
 80.6301
 80.1821
 2.54254
 7.88978
 76.9984
 71.4001
 46.7851
 43.0533
 16.8081
 83.6177
 64.8101
 14.3753
 15.5728
 91.8075
 64.9943
 81.5978
 7.41968
 85.3408
 65.0435
 65.0444
 26.9217
 58.4535
 36.6745
 15.616
 65.6054
 56.5187
 68.6921
 11.2334
 62.8988
 46.2532
 19.6133
 89.0835
 87.8226
 2.868
 41.0121
 86.7231
 35.6079
 67.8304
 64.6217
 34.8868
 4.47754
 10.6033
 71.7274
 91.8302
 48.4417
 65.0625
 18.7705
 65.1066
 2.51069
 10.9404
 6.88928
 64.8896
 86.1802
 87.7897
 34.0013
 89.3354
 46.2316
 17.2148
 11.0062
 64.8482
 36.4263
 81.0857
 7.93649
 17.7915
 5.65541
 33.1505
 82.8267
 75.8473
 67.7365
 73.6624
 11.7189
 46.517
 73.7577
 58.7548
 22.4236
 46.1944
 65.2618
 98.0153
 11.1268
 95.2745
 0.655412
 83.7387
 13.7268
 65.157
 67.5326
 80.0394
 60.7186
 87.697
 50.8065
 46.2685
 11.2015
 8.17401
 92.4501
 10.7116
 52.6684
 65.0075
 11.1449
 14.9014
 5.93948
 93.2188
 76.9091
 72.0188
 83.8256
 30.0057
 10.9142
 95.7663
 39.6962
 2.55018
 5.04611
 3.47722
 80.2111
 46.4501
 99.3062
 81.0138
 42.3812
 46.4485
 14.3524
 65.4105
 92.0108
 63.3639
 37.8912
 2.43435
 73.0411
 13.8394
 85.7057
 78.7695
 42.6235
 10.5855
 62.8366
 5.23537
 10.6988
 46.3256
 95.96
 11.3041
 25.0094
 2.71588
 50.4813
 62.9505
 11.2642
 11.4484
 11.286
 53.7385
 65.4907
 62.9482
 35.2934
 91.9387
 90.9968
 32.2264
 11.2515
 70.055
 98.3783
 6.03643
 28.9762
 94.0807
 17.5783
 93.8073
 65.1688
 1.43632
 65.2203
 11.2548
 0.666181
 9.41842
 46.4939
 24.1234
 60.684
 38.4873
 3.116
 62.5649
 65.2302
 29.4893
 66.6073
 13.085
 65.2152
 87.0534
 92.3731
 46.2312
 35.9266
 73.1514
 94.2113
 2.55439
 13.6966
 14.4959
 65.1683
 74.0966
 89.5858
 11.207
 37.4068
 79.0613
 65.0543
 65.1162
 69.0524
 11.3461
 46.5344
 11.3174
 11.1456
 54.767
 53.4983
 50.7284
 73.2702
 93.0135
 4.77624
 31.672
 24.8854
 64.7957
 10.9833
 11.0215
 64.9623
 66.8715
 99.5956
 56.8927
 40.4457
 37.2242
 13.7829
 53.3851
 3.76627
 26.3659
 81.767
 74.3718
 11.2207
 8.05951
 37.2395
 65.108
 63.28
 32.8264
 11.3714
 21.5238
 73.2742
 2.6827
 11.2638
 96.0425
 64.9611
 10.5682
 2.62127
 27.9072
 28.7144
 34.4785
 84.6479
 46.1253
 15.1135
 60.0013
 62.6458
 18.6705
 36.7429
 89.5894
 71.6169
 78.5883
 65.0621
 51.1797
 0.97627
 62.7313
 11.1228
 37.4366
 2.54875
 1.92228
 23.3135
 46.0575
 78.993
 46.4493
 11.2541
 4.24972
 9.57631
 10.4852
 1.93464
 33.6757
 91.0628
 0.617908
 75.9891
 92.2475
 60.9504
 32.3177
 19.0366
 8.46718
 53.9075
 60.0888
 45.9733
 37.1104
 34.6012
 11.1561
 29.7076
 64.6146
 45.0839
 84.8646
 77.3527
 9.33225
 72.0986
 6.06615
 2.64601
 25.5197
 43.3894
 72.7131
 85.1239
 27.1406
 1.62994
 35.5513
 64.9421
 73.062
 2.84044
 64.8475
 8.58461
 75.8821
 33.6366
 0.640244
 0.626239
 74.7525
 56.4369
 59.0921
 84.3057
 0.644039
 28.9827
 7.81751
 74.6032
 52.0948
 18.3692
 33.2689
 11.0278
 17.8138
 46.3807
 97.2045
 75.139
 65.7682
 34.6398
 83.8738
 20.934
 24.3974
 1.20418
 34.819
 49.1733
 90.2203
 12.7074
 11.4467
 11.1597
 29.9158
 64.9791
 6.28061
 7.31008
 95.1306
 14.0693
 1.38355
 64.9475
 11.2695
 12.9637
 64.8328
 11.2731
 2.6375
 26.0731
 78.6239
 5.39383
 11.3046
 99.3042
 8.04567
 10.7788
 2.4911
 86.9114
 11.3043
 13.1183
 44.5177
 7.94405
 46.1166
 10.0215
 3.9183
 6.69986
 91.839
 73.6475
 24.0259
 3.05702
 11.1851
 16.4913
 46.4243
 27.4196
 83.0008
 81.2368
 64.9841
 32.4945
 67.5079
 44.7501
 33.3507
 50.1432
 65.1996
 83.6952
 79.2646
 64.5856
 87.4361
 10.7577
 47.3298
 30.8522
 8.03637
 47.278
 37.7786
 64.8278
 10.5395
 20.4077
 19.8615
 73.238
 11.2202
 87.1975
 0.775546
 50.5703
 11.1668
 25.5467
 64.7881
 7.63722
 11.0739
 91.9631
 11.1275
 31.9347
 2.7831
 64.7045
 11.2906
 41.5875
 63.0419
 48.5312
 54.6886
 0.646735
 11.0924
 48.4386
 11.3109
 12.2939
 60.8709
 47.8613
 86.4315
 82.1138
 11.2497
 49.7989
 5.14056
 64.2521
 33.7786
 4.43886
 78.6831
 27.903
 64.9324
 12.9809
 34.7699
 57.5054
 11.1254
 63.4725
 52.1671
 74.0982
 79.3821
 0.606334
 11.1886
 64.5354
 52.5771
 46.1257
 5.18277
 81.3959
 81.5345
 76.5242
 28.3065
 64.7665
 72.8951
 65.4273
 89.5675
 11.1953
 26.7584
 37.6777
 36.7641
 23.8097
 42.8013
 55.3057
 73.798
 82.3158
 11.2721
 21.8001
 64.9311
 94.5426
 8.23718
 20.5737
 38.163
 44.2122
 46.6537
 64.9847
 46.4136
 91.9188
 64.869
 65.3893
 65.2919
 36.5277
 97.0592
 32.791
 7.4583
 11.2927
 11.2298
 6.70278
 79.0716
 89.2076
 41.3599
 47.6325
 4.80124
 93.0713
 49.6325
 16.7984
 8.99876
 32.5795
 11.2531
 79.8316
 6.15497
 54.7478
 90.71
 65.139
 92.6186
 38.4332
 46.2381
 11.0404
 46.5827
 25.964
 11.2363
 32.8441
 89.198
 0.793413
 30.1843
 73.3678
 53.6047
 21.6839
 88.6557
 97.4197
 75.9382
 28.6201
 92.0858
 65.1812
 85.5275
 57.9972
 32.2723
 19.435
 76.8058
 46.2076
 58.7402
 77.5405
 26.1058
 14.2054
 2.75982
 64.7828
 48.3462
 11.3188
 19.057
 64.8791
 54.0013
 11.1084
 0.645843
 16.7796
 0.639017
 82.4621
 65.0809
 91.6924
 5.20509
 64.5779
 76.5818
 65.3091
 64.9692
 92.2025
 11.1347
 63.5124
 50.8624
 45.4719
 38.8078
 64.9252
 64.719
 86.6262
 20.5162
 76.8555
 11.1524
 11.3697
 46.4242
 59.7839
 68.6822
 25.2111
 30.918
 92.6488
 0.854994
 0.610571
 65.1285
 2.78209
 85.9531
 60.4621
 49.2741
 31.7751
 7.80227
 13.451
 86.7181
 19.769
 17.6103
 72.8564
 83.7177
 71.3914
 55.0006
 45.5666
 91.8647
 11.1264
 41.5354
 65.5396
 7.9858
 91.844
 60.4016
 11.2841
 20.2884
 64.859
 51.5965
 11.0526
 91.7684
 52.0594
 2.29717
 10.8086
 17.7837
 21.2316
 94.804
 66.4875
 11.3926
 65.1432
 32.7013
 65.1836
 10.649
 61.6325
 88.5544
 24.6844
 65.0621
 98.6311
 33.6163
 64.9183
 11.4551
 16.1827
 64.7918
 89.6931
 15.2539
 46.2762
 44.2782
 2.45662
 92.0185
 23.9007
 29.3845
 53.4603
 92.7329
 11.2486
 2.65746
 11.3983
 2.54026
 37.018
 10.9607
 8.60766
 74.2011
 90.0729
 2.59183
 46.4098
 46.2285
 64.8075
 2.42482
 92.3894
 0.806127
 74.7346
 62.8115
 10.5894
 54.0566
 0.665337
 94.5268
 29.6624
 46.133
 13.4664
 94.3568
 97.8564
 89.9224
 17.886
 41.3832
 10.7608
 67.5582
 73.7764
 73.0818
 11.3563
 77.9195
 67.143
 65.4134
 46.4078
 85.0839
 11.0998
 64.6318
 8.01508
 65.1578
 6.16851
 38.9533
 17.2193
 2.61215
 73.6406
 45.8977
 9.42388
 2.62277
 37.7621
 17.8929
 17.9327
 11.1746
 40.1713
 76.8904
 90.9848
 86.0889
 67.0674
 54.1634
 92.9524
 2.57714
 35.1207
 73.0778
 65.429
 7.94406
 11.2141
 2.68825
 8.35633
 64.9853
 65.2792
 11.2115
 46.5299
 77.9527
 75.132
 39.5712
 57.1199
 82.6074
 87.2905
 82.9019
 31.1203
 2.60901
 88.4458
 64.8463
 2.56517
 83.0739
 18.225
 5.70296
 0.659196
 20.4495
 37.3817
 22.0971
 11.1798
 16.8136
 33.3168
 46.3486
 65.6928
 23.986
 76.2421
 65.1071
 72.9217
 69.9581
 65.3065
 19.8795
 3.86669
 99.0994
 32.733
 2.9961
 95.4258
 91.2408
 37.9152
 74.4546
 63.7102
 43.5348
 11.4157
 45.5865
 36.9793
 46.3259
 73.3696
 58.4709
 38.8098
 64.587
 65.2169
 64.8512
 41.6222
 2.64185
 83.6418
 20.9629
 5.40273
 0.799984
 36.35
 3.49923
 64.9939
 65.1328
 82.2281
 11.1844
 49.764
 6.64641
 7.52115
 0.747706
 8.72954
 2.54406
 11.1208
 18.0837
 18.0566
 90.5024
 68.2639
 74.4776
 7.48843
 61.4064
 7.88603
 36.8215
 85.088
 29.7319
 96.9532
 11.0969
 65.1109
 6.92022
 14.9304
 65.1215
 65.252
 11.4394
 46.0821
 28.4154
 64.7996
 64.9654
 11.5287
 64.7646
 70.6785
 48.327
 17.2616
 7.62362
 2.62995
 0.684516
 24.6914
 46.8118
 88.1311
 76.5639
 52.0078
 84.1139
 2.42064
 1.20146
 10.405
 35.6268
 9.46898
 21.9195
 40.768
 0.609233
 46.3689
 65.01
 9.34019
 95.2202
 11.1134
 57.5241
 69.4015
 11.1366
 73.5345
 65.7907
 2.56463
 58.9777
 79.4906
 1.87836
 64.9758
 35.8265
 9.82612
 64.9778
 48.3576
 64.9795
 11.1473
 11.1392
 26.4341
 66.4785
 41.7632
 43.4901
 0.695071
 73.1374
 18.3998
 64.7674
 45.3382
 15.9644
 11.3974
 65.0763
 11.2423
 81.4067
 95.0572
 3.99684
 86.7378
 45.8677
 96.1113
 10.6082
 5.17937
 11.0549
 28.5413
 85.2282
 65.1162
 13.1504
 15.0759
 12.1762
 69.3074
 32.7116
 28.8216
 76.7074
 16.0674
 58.7929
 64.9942
 46.03
 4.73084
 64.7854
 64.9481
 53.6911
 27.7616
 75.2214
 64.7871
 46.1288
 27.5474
 79.2261
 73.0713
 24.0521
 10.8138
 11.1659
 60.2242
 41.7053
 57.1012
 15.5276
 26.1876
 11.9043
 16.4237
 8.00044
 8.06298
 11.2753
 37.5301
 13.7473
 63.6491
 64.831
 91.8022
 10.7411
 46.3346
 72.7544
 36.7739
 17.0367
 73.411
 97.6723
 65.0282
 33.0435
 10.8572
 10.4124
 53.6064
 29.7963
 2.40083
 2.62194
 12.6836
 11.1239
 99.601
 55.9172
 48.1266
 8.08016
 5.00826
 86.4128
 65.2499
 79.4189
 52.2446
 68.9519
 69.5034
 13.1317
 8.37114
 26.6779
 86.8868
 70.0465
 99.7762
 64.9454
 49.2572
 62.8597
 45.9271
 6.40752
 92.5756
 90.5998
 65.0475
 42.5285
 30.8216
 1.82466
 64.8596
 10.7882
 9.3124
 19.6344
 13.4889
 3.54424
 40.8009
 35.5
 65.2403
 61.9247
 37.0013
 64.9431
 11.292
 5.66922
 15.4354
 20.0713
 21.9691
 93.1716
 43.652
